time,Voltage (V),Current (A)
1574279475.2873838,3.5151397,0.15
1574279476.7001393,3.4556486,0.151
1574279478.1096373,3.437781,0.15
1574279479.4874196,3.4221942,0.151
1574279480.8875356,3.407318,0.151
1574279482.2675612,3.3934326,0.151
1574279483.6512158,3.3802541,0.15
1574279485.1380682,3.3668976,0.151
1574279486.5758839,3.3548737,0.15
1574279487.9727106,3.3440315,0.151
1574279489.3746486,3.3340362,0.151
1574279490.771448,3.3249585,0.15
1574279492.1667488,3.3167757,0.15
1574279493.5754712,3.3093995,0.151
1574279494.9697845,3.3028866,0.15
1574279496.3686712,3.2970969,0.151
1574279497.7672482,3.2919522,0.15
1574279499.1677334,3.2874058,0.151
1574279500.578496,3.2833024,0.15
1574279501.9775383,3.2797001,0.15
1574279503.3841076,3.276421,0.151
1574279504.7809496,3.2734472,0.151
1574279506.1816928,3.2707424,0.151
1574279507.5861678,3.2682268,0.151
1574279508.982956,3.265946,0.15
1574279510.442322,3.2636955,0.15
1574279511.8428643,3.2617051,0.15
1574279513.24063,3.2598055,0.151
1574279514.616513,3.2580207,0.151
1574279516.0269625,3.2562928,0.151
1574279517.4277942,3.2546696,0.151
1574279518.8225827,3.2531196,0.15
1574279520.22219,3.2516101,0.15
1574279521.5994837,3.2501632,0.151
1574279522.9998727,3.2487634,0.151
1574279524.3981912,3.2474154,0.151
1574279525.7972217,3.2461052,0.151
1574279527.2033718,3.2447736,0.151
1574279528.6044981,3.2435342,0.151
1574279530.002474,3.2423161,0.151
1574279531.3963249,3.2411221,0.15
1574279532.7943661,3.2399685,0.151
1574279534.192961,3.238854,0.151
1574279535.5916648,3.2377407,0.151
1574279536.9860427,3.2366603,0.151
1574279538.3911448,3.2355988,0.151
1574279539.7679243,3.2345852,0.15
1574279541.1639254,3.2335616,0.151
1574279542.5752082,3.2325594,0.15
1574279543.9732835,3.2316102,0.151
1574279545.3763168,3.2306762,0.15
1574279546.7739394,3.2297485,0.15
1574279548.1730638,3.2288258,0.151
1574279549.5744755,3.2279158,0.15
1574279550.9713802,3.2270222,0.15
1574279552.379321,3.2261336,0.15
1574279553.776458,3.2252602,0.151
1574279555.1752222,3.2244082,0.151
1574279556.6127467,3.223565,0.15
1574279558.0088704,3.2227686,0.151
1574279559.4198482,3.2219217,0.151
1574279560.818393,3.221105,0.151
1574279562.2187514,3.2203073,0.151
1574279563.5961974,3.2195601,0.15
1574279565.0116148,3.2188255,0.151
1574279566.4061103,3.2180758,0.151
1574279567.8069842,3.2173349,0.15
1574279569.2065506,3.2165801,0.15
1574279570.5850406,3.2158682,0.15
1574279571.9850276,3.2151916,0.15
1574279573.3876138,3.2144772,0.151
1574279574.785112,3.2137767,0.15
1574279576.1827304,3.2131116,0.151
1574279577.5728672,3.2124464,0.15
1574279578.9689739,3.211761,0.151
1574279580.3691053,3.2110857,0.151
1574279581.7703288,3.2104382,0.151
1574279583.1695058,3.2097907,0.151
1574279584.5788348,3.2091432,0.15
1574279585.9590466,3.2085197,0.15
1574279587.354967,3.2079202,0.15
1574279588.7530735,3.2073042,0.151
1574279590.155145,3.2066744,0.151
1574279591.5571108,3.2061102,0.151
1574279592.9550085,3.2055207,0.151
1574279594.355007,3.2049338,0.15
1574279595.7518702,3.204381,0.151
1574279597.1496558,3.2038155,0.15
1574279598.5512142,3.2032564,0.151
1574279599.9501147,3.2026682,0.15
1574279601.346499,3.2021583,0.151
1574279602.7490373,3.2016067,0.15
1574279604.1464953,3.2010437,0.151
1574279605.5453312,3.2004997,0.151
1574279606.9436975,3.1999721,0.15
1574279608.3385775,3.1994395,0.151
1574279609.7362158,3.1989283,0.15
1574279611.1366198,3.1984121,0.15
1574279612.535717,3.1978984,0.15
1574279613.9332068,3.1973544,0.151
1574279615.335974,3.1968406,0.15
1574279616.732733,3.1963736,0.151
1574279618.1314335,3.1958763,0.15
1574279619.5320215,3.1953702,0.151
1574279620.929142,3.1948918,0.15
1574279622.3891237,3.1944046,0.151
1574279623.7952726,3.1939098,0.15
1574279625.193259,3.1934176,0.15
1574279626.5886614,3.192967,0.15
1574279627.9885929,3.1925214,0.151
1574279629.386068,3.1920443,0.151
1574279630.7833161,3.1916051,0.151
1574279632.182512,3.1911583,0.151
1574279633.5929136,3.1906837,0.151
1574279634.9889958,3.1902583,0.151
1574279636.3873155,3.1898494,0.151
1574279637.7848017,3.1894127,0.15
1574279639.1829545,3.1889785,0.151
1574279640.5935392,3.1885607,0.15
1574279641.9902642,3.1881164,0.151
1574279643.39054,3.1876935,0.151
1574279644.7898636,3.1872581,0.151
1574279646.1878197,3.1868416,0.15
1574279647.5953083,3.1864415,0.15
1574279649.0518165,3.1860502,0.15
1574279650.4323132,3.18564,0.151
1574279651.8454459,3.1852449,0.15
1574279653.2470093,3.1848448,0.151
1574279654.6237524,3.1844459,0.151
1574279656.0256493,3.1840244,0.15
1574279657.4334733,3.1836507,0.15
1574279658.8295653,3.1832569,0.151
1574279660.2277272,3.1828619,0.151
1574279661.6049502,3.1825047,0.151
1574279663.0208812,3.1820957,0.151
1574279664.4269774,3.1817108,0.15
1574279665.8225605,3.1813359,0.15
1574279667.2189934,3.1809749,0.15
1574279668.5957563,3.180653,0.151
1574279670.0021143,3.1802895,0.15
1574279671.3997724,3.1799349,0.15
1574279672.8175192,3.1795789,0.151
1574279674.2191992,3.1792167,0.15
1574279675.596726,3.1788595,0.151
1574279676.9942129,3.1785187,0.15
1574279678.3957813,3.1781627,0.151
1574279679.7942321,3.1778257,0.151
1574279681.19312,3.17749,0.15
1574279682.5935974,3.1771378,0.151
1574279683.989655,3.1767869,0.15
1574279685.3871582,3.176479,0.15
1574279686.785685,3.176142,0.151
1574279688.191674,3.1757999,0.15
1574279689.5860484,3.1754629,0.151
1574279690.9916177,3.1751941,0.15
1574279692.3869164,3.1748495,0.15
1574279693.7856522,3.1745339,0.15
1574279695.1823814,3.174231,0.151
1574279696.5898197,3.1739281,0.15
1574279698.043324,3.1735848,0.15
1574279699.4429605,3.173273,0.151
1574279700.8431525,3.1729764,0.15
1574279702.2422314,3.1726583,0.15
1574279703.6194706,3.1723478,0.15
1574279705.0166998,3.1720512,0.151
1574279706.4202693,3.1717533,0.15
1574279707.820058,3.1714769,0.151
1574279709.197616,3.1711828,0.15
1574279710.5882232,3.170895,0.151
1574279712.0015423,3.1706262,0.151
1574279713.380178,3.1703233,0.151
1574279714.7998683,3.1700178,0.151
1574279716.197266,3.1697553,0.151
1574279717.5859816,3.1694435,0.151
1574279718.965216,3.1691785,0.151
1574279720.3720963,3.1689197,0.151
1574279721.7715135,3.1686509,0.151
1574279723.1739154,3.1683883,0.151
1574279724.5517561,3.1681271,0.15
1574279725.9547534,3.1678418,0.151
1574279727.3514154,3.1675591,0.151
1574279728.7505558,3.1673319,0.15
1574279730.1309686,3.1670681,0.15
1574279731.5220218,3.166827,0.151
1574279732.8997142,3.1665809,0.15
1574279734.322095,3.1663284,0.151
1574279735.7199242,3.1660419,0.15
1574279737.1204767,3.1658135,0.15
1574279738.5172746,3.1655345,0.15
1574279739.9133267,3.1652833,0.15
1574279741.3146214,3.1650296,0.15
1574279742.7108724,3.1647923,0.151
1574279744.1080716,3.1645248,0.151
1574279745.5103238,3.1642534,0.151
1574279746.9097543,3.1640224,0.151
1574279748.309821,3.1637738,0.15
1574279749.7125964,3.1635453,0.151
1574279751.1105318,3.1633055,0.151
1574279752.510563,3.1630581,0.151
1574279753.9119833,3.1628372,0.15
1574279755.3138876,3.1626088,0.151
1574279756.7130864,3.1624207,0.15
1574279758.12872,3.1621708,0.151
1574279759.5291708,3.161965,0.15
1574279760.9852984,3.1617303,0.15
1574279762.3838205,3.1614942,0.151
1574279763.7598917,3.161267,0.15
1574279765.212325,3.1610298,0.151
1574279766.5904737,3.1608202,0.151
1574279767.9666228,3.1606183,0.15
1574279769.344772,3.1603949,0.15
1574279770.7279172,3.1601626,0.15
1574279772.1370468,3.1599821,0.151
1574279773.513197,3.1597789,0.151
1574279774.9253242,3.1595871,0.151
1574279776.3024755,3.1593851,0.151
1574279777.715606,3.1591655,0.15
1574279779.092838,3.158956,0.151
1574279780.4939585,3.1587805,0.15
1574279781.8714416,3.1585647,0.151
1574279783.2838175,3.1583993,0.151
1574279784.6603427,3.1581772,0.15
1574279786.0884714,3.1580194,0.15
1574279787.4641933,3.1578326,0.15
1574279788.8645065,3.1575979,0.151
1574279790.241608,3.1574275,0.151
1574279791.6551735,3.1572444,0.151
1574279793.0534453,3.1570526,0.15
1574279794.4457746,3.156862,0.151
1574279795.8433716,3.1566727,0.15
1574279797.2357676,3.1564884,0.151
1574279798.6191227,3.1563079,0.15
1574279800.0252793,3.1561388,0.15
1574279801.4015527,3.1559557,0.15
1574279802.8317153,3.155779,0.15
1574279804.2089508,3.1555948,0.15
1574279805.6078744,3.1554218,0.151
1574279807.011163,3.1552628,0.15
1574279808.4199445,3.1551113,0.151
1574279809.8190517,3.1549119,0.151
1574279811.1963348,3.1547302,0.15
1574279812.5728092,3.1545572,0.151
1574279813.9820483,3.1543995,0.151
1574279815.3593838,3.1542127,0.151
1574279816.7716045,3.1540372,0.151
1574279818.1487772,3.1539022,0.15
1574279819.5650806,3.1537368,0.151
1574279820.9426498,3.1535942,0.151
1574279822.3479323,3.1534314,0.151
1574279823.7364821,3.1532673,0.151
1574279825.1394613,3.1531057,0.151
1574279826.5244725,3.1529757,0.15
1574279827.9376686,3.1528129,0.151
1574279829.3278797,3.1526703,0.15
1574279830.7303698,3.1525112,0.15
1574279832.116941,3.1523522,0.151
1574279833.5091822,3.1522108,0.15
1574279834.896704,3.1520354,0.15
1574279836.307254,3.1518852,0.151
1574279837.6934965,3.1517123,0.15
1574279839.0985932,3.1515886,0.15
1574279840.4849417,3.1514535,0.151
1574279841.8882096,3.1512844,0.151
1574279843.2742364,3.1511531,0.151
1574279844.680509,3.1510004,0.15
1574279846.0675116,3.1508691,0.151
1574279847.4598188,3.1507214,0.15
1574279848.8470562,3.1505927,0.15
1574279850.261961,3.1504109,0.151
1574279851.6500094,3.1502835,0.15
1574279853.0500937,3.1501219,0.151
1574279854.4378867,3.1499831,0.15
1574279855.8394344,3.1498505,0.15
1574279857.2158227,3.1496915,0.151
1574279858.633616,3.1495817,0.15
1574279860.0226555,3.1494479,0.151
1574279861.421011,3.1492964,0.151
1574279862.8084784,3.1491828,0.151
1574279864.211953,3.1490465,0.151
1574279865.5988688,3.1489291,0.15
1574279867.002923,3.1487739,0.15
1574279868.3905206,3.1486502,0.151
1574279869.7952268,3.148529,0.151
1574279871.1833053,3.1483876,0.151
1574279872.5824518,3.1482614,0.151
1574279873.9682317,3.1481428,0.151
1574279875.3721108,3.148014,0.15
1574279876.7601914,3.1478979,0.151
1574279878.1614892,3.1477906,0.15
1574279879.54814,3.1476732,0.15
1574279880.9545774,3.1475319,0.151
1574279882.3373728,3.1474031,0.151
1574279883.7474048,3.1472958,0.15
1574279885.140984,3.1471961,0.151
1574279886.5315678,3.1470888,0.151
1574279887.9201188,3.1469639,0.151
1574279889.3177989,3.1468314,0.151
1574279890.7053127,3.1467329,0.15
1574279892.1132042,3.1465979,0.151
1574279893.5011852,3.1465108,0.151
1574279894.9038866,3.1463997,0.15
1574279896.2892795,3.1462861,0.15
1574279897.7288008,3.1461637,0.15
1574279899.1165662,3.146069,0.151
1574279900.5063615,3.1459264,0.151
1574279901.8938348,3.1458166,0.15
1574279903.2816844,3.1457002,0.151
1574279904.6707401,3.145598,0.15
1574279906.0631838,3.1455021,0.15
1574279907.455903,3.1453859,0.15
1574279908.8540144,3.145261,0.151
1574279910.239689,3.1451449,0.151
1574279911.6357753,3.1450464,0.151
1574279913.0240247,3.1449328,0.151
1574279914.4329991,3.1448419,0.15
1574279915.8211586,3.1447056,0.15
1574279917.2273164,3.1446413,0.15
1574279918.6118262,3.1445378,0.151
1574279920.0375705,3.1443876,0.151
1574279921.424648,3.1443219,0.151
1574279922.8016884,3.1442058,0.151
1574279924.186813,3.1440821,0.151
1574279925.5862803,3.1439874,0.151
1574279926.979754,3.1438764,0.151
1574279928.4888227,3.1437842,0.15
1574279929.9220717,3.1436896,0.151
1574279931.304802,3.1435861,0.15
1574279932.7161584,3.1434977,0.151
1574279934.1030836,3.143403,0.151
1574279935.5147288,3.1432958,0.151
1574279936.891878,3.1432263,0.151
1574279938.2959936,3.1431115,0.151
1574279939.6736448,3.1429865,0.151
1574279941.0869622,3.1429108,0.15
1574279942.4650784,3.14283,0.15
1574279943.8889992,3.1427278,0.151
1574279945.2827303,3.1426621,0.15
1574279946.6681297,3.14257,0.151
1574279948.0471532,3.1424463,0.151
1574279949.4704025,3.1423731,0.151
1574279950.8609972,3.1423049,0.15
1574279952.2641768,3.1422178,0.15
1574279953.6407292,3.1421244,0.151
1574279955.0528533,3.1420348,0.15
1574279956.4299374,3.1419301,0.151
1574279957.8281786,3.1418405,0.15
1574279959.219693,3.1417508,0.15
1574279960.619913,3.1416751,0.15
1574279961.9975982,3.1415489,0.151
1574279963.4170651,3.1414744,0.15
1574279964.8065755,3.14141,0.151
1574279966.2000396,3.1413469,0.151
1574279967.57751,3.1412434,0.15
1574279968.999744,3.1411627,0.151
1574279970.3991115,3.1410869,0.151
1574279971.792339,3.1410061,0.151
1574279973.169701,3.1409266,0.151
1574279974.5821233,3.1408307,0.15
1574279975.9633574,3.1407764,0.151
1574279977.3720489,3.1406931,0.15
1574279978.7598178,3.1406199,0.151
1574279980.1704202,3.1405669,0.15
1574279981.5672572,3.1404811,0.15
1574279982.9456415,3.1404154,0.15
1574279984.3352544,3.140322,0.15
1574279985.7308724,3.1401983,0.15
1574279987.1172373,3.1401226,0.151
1574279988.5376463,3.1400784,0.15
1574279989.9306893,3.1400027,0.151
1574279991.320701,3.1399396,0.151
1574279992.6984875,3.1398613,0.151
1574279994.1157563,3.1397881,0.15
1574279995.499463,3.1396808,0.151
1574279996.8923426,3.1396354,0.15
1574279998.2771084,3.1395584,0.151
1574279999.6815941,3.139489,0.151
1574280001.0585332,3.139388,0.15
1574280002.472541,3.139306,0.151
1574280003.8579736,3.1392366,0.151
1574280005.2619677,3.1391671,0.15
1574280006.6391113,3.1391192,0.151
1574280008.0604494,3.1390662,0.15
1574280009.4374716,3.138974,0.151
1574280010.8525493,3.1389298,0.15
1574280012.2379632,3.1388781,0.15
1574280013.638096,3.1387998,0.15
1574280015.015246,3.1387392,0.151
1574280016.4347868,3.1386761,0.151
1574280017.8109376,3.1385941,0.15
1574280019.2130919,3.1385158,0.15
1574280020.5904274,3.1384704,0.15
1574280022.0042357,3.1384035,0.151
1574280023.3926177,3.138353,0.151
1574280024.8028598,3.1382785,0.15
1574280026.1913602,3.1382154,0.15
1574280027.5857542,3.1381511,0.151
1574280028.9741974,3.1380943,0.151
1574280030.3738387,3.1380387,0.15
1574280031.7632756,3.1379643,0.151
1574280033.1649215,3.1378885,0.15
1574280034.5523007,3.1378242,0.15
1574280035.9639761,3.1377648,0.15
1574280037.3414092,3.1376904,0.15
1574280038.7449262,3.1376399,0.151
1574280040.122294,3.1375742,0.15
1574280041.5343344,3.137501,0.15
1574280042.9121335,3.1374644,0.15
1574280044.3258197,3.1373887,0.151
1574280045.7029788,3.1373104,0.15
1574280047.116102,3.137236,0.151
1574280048.6067028,3.1372133,0.151
1574280049.983909,3.1371337,0.15
1574280051.3609326,3.1370858,0.151
1574280052.739497,3.1370189,0.15
1574280054.1287456,3.1369633,0.15
1574280055.515144,3.1369141,0.151
1574280056.8945525,3.1368409,0.15
1574280058.2779722,3.1367778,0.151
1574280059.6556196,3.1367399,0.15
1574280061.066162,3.1366806,0.151
1574280062.4432108,3.136639,0.151
1574280063.8571513,3.1365948,0.151
1574280065.233148,3.1365342,0.151
1574280066.6471784,3.1364623,0.151
1574280068.0247593,3.1364181,0.15
1574280069.4382925,3.1363764,0.15
1574280070.814978,3.1362906,0.151
1574280072.2277296,3.1362376,0.151
1574280073.6039279,3.1361909,0.151
1574280075.01773,3.1361353,0.151
1574280076.3944588,3.1360621,0.15
1574280077.8074365,3.1360028,0.15
1574280079.1843328,3.1359397,0.15
1574280080.6000476,3.1359119,0.15
1574280081.9778578,3.135864,0.15
1574280083.3950002,3.1358072,0.15
1574280084.7713587,3.135739,0.15
1574280086.1791425,3.1356974,0.151
1574280087.5623934,3.1356545,0.151
1574280088.9646692,3.1356027,0.15
1574280090.3425932,3.1355434,0.15
1574280091.7594612,3.1354954,0.151
1574280093.139977,3.1354487,0.151
1574280094.5502133,3.1353818,0.15
1574280095.9279714,3.1353389,0.15
1574280097.3397691,3.1353036,0.151
1574280098.7174451,3.1352354,0.151
1574280100.1297987,3.1351862,0.151
1574280101.5072393,3.1351319,0.151
1574280102.9165506,3.1350764,0.151
1574280104.2938104,3.1350069,0.151
1574280105.7099657,3.1349287,0.151
1574280107.1116548,3.1349262,0.151
1574280108.5016327,3.1348807,0.15
1574280109.8789303,3.134834,0.151
1574280111.292219,3.1347999,0.151
1574280112.701261,3.134752,0.15
1574280114.0822942,3.1347078,0.15
1574280115.4608576,3.1346636,0.15
1574280116.8720548,3.1346005,0.15
1574280118.2493055,3.1345374,0.15
1574280119.6788158,3.1345096,0.151
1574280121.0692575,3.1344667,0.151
1574280122.4525416,3.1343973,0.15
1574280123.8284838,3.134338,0.15
1574280125.2412183,3.1343077,0.151
1574280126.6188557,3.1342484,0.151
1574280128.0327709,3.1342017,0.15
1574280129.4205623,3.1341663,0.151
1574280130.8377979,3.1341146,0.151
1574280132.2155037,3.1340679,0.15
1574280133.6133978,3.1340376,0.15
1574280135.0036454,3.1339972,0.15
1574280136.4035804,3.1339353,0.151
1574280137.7909548,3.1338962,0.15
1574280139.207485,3.1338457,0.151
1574280140.6007683,3.1337952,0.15
1574280141.9834542,3.1337725,0.151
1574280143.3604484,3.133722,0.15
1574280144.7746503,3.133688,0.151
1574280146.1586912,3.1336299,0.151
1574280147.5772805,3.1335971,0.15
1574280148.9548924,3.1335378,0.15
1574280150.366925,3.1334961,0.15
1574280151.7869227,3.1334696,0.151
1574280153.1802251,3.1334242,0.15
1574280154.5750017,3.1333901,0.15
1574280155.9514868,3.133356,0.15
1574280157.3340673,3.1332967,0.15
1574280158.724467,3.1332538,0.151
1574280160.1161046,3.1332184,0.15
1574280161.5281868,3.133197,0.15
1574280162.9173393,3.1331414,0.151
1574280164.3055904,3.1330947,0.151
1574280165.6979525,3.133043,0.151
1574280167.1075158,3.1329874,0.15
1574280168.498081,3.1329534,0.15
1574280169.945567,3.1329004,0.15
1574280171.3396769,3.1328852,0.151
1574280172.7175899,3.1328448,0.151
1574280174.1111758,3.1328221,0.151
1574280175.5061147,3.1327779,0.15
1574280176.899345,3.1327363,0.15
1574280178.2887657,3.1326719,0.151
1574280179.665805,3.1326618,0.15
1574280181.045988,3.1326429,0.15
1574280182.4234116,3.1325798,0.151
1574280183.8435817,3.1325394,0.15
1574280185.2332275,3.1325015,0.151
1574280186.6272655,3.132475,0.151
1574280188.00502,3.1324157,0.15
1574280189.4175632,3.1323904,0.15
1574280190.795507,3.1323412,0.15
1574280192.2071517,3.1323223,0.15
1574280193.5859518,3.1322958,0.151
1574280195.0083442,3.1322251,0.15
1574280196.3955398,3.1322213,0.151
1574280197.7891083,3.1321582,0.15
1574280199.181771,3.1321367,0.151
1574280200.5822108,3.1320623,0.15
1574280201.9749112,3.1320193,0.151
1574280203.3806376,3.1319916,0.15
1574280204.7628713,3.1319537,0.151
1574280206.1588464,3.1319259,0.15
1574280207.5519247,3.1319007,0.15
1574280208.9650607,3.1318818,0.151
1574280210.3589573,3.1318401,0.15
1574280211.7507944,3.1317959,0.15
1574280213.1376448,3.1317997,0.15
1574280214.5390823,3.1317631,0.151
1574280215.9267974,3.1317139,0.151
1574280217.3326604,3.1316596,0.15
1574280218.7181597,3.1316255,0.15
1574280220.1233983,3.1315788,0.151
1574280221.5321522,3.1315549,0.15
1574280222.9111233,3.1315359,0.15
1574280224.3007388,3.1315069,0.15
1574280225.689627,3.1314741,0.15
1574280227.0765278,3.1314577,0.15
1574280228.4926562,3.131416,0.15
1574280229.8831172,3.1313845,0.151
1574280231.2814286,3.1313378,0.151
1574280232.6588697,3.1312961,0.151
1574280234.068005,3.1312721,0.15
1574280235.4609723,3.1312532,0.151
1574280236.8645935,3.1312166,0.15
1574280238.2546341,3.131185,0.15
1574280239.6449292,3.1311648,0.151
1574280241.035906,3.1311282,0.15
1574280242.4315083,3.1310702,0.15
1574280243.808785,3.131074,0.15
1574280245.230729,3.1310134,0.151
1574280246.6095421,3.1309755,0.151
1574280248.0229354,3.1309541,0.151
1574280249.3996568,3.13092,0.15
1574280250.8091419,3.1308632,0.15
1574280252.1990974,3.1308354,0.15
1574280253.5920496,3.1308039,0.151
1574280254.9861226,3.1307559,0.151
1574280256.397252,3.1307168,0.151
1574280257.782027,3.1307054,0.151
1574280259.1868947,3.1306423,0.151
1574280260.5774982,3.1306095,0.15
1574280261.9720674,3.1305868,0.15
1574280263.3639286,3.1305451,0.151
1574280264.7617517,3.1305401,0.151
1574280266.1488652,3.1305123,0.15
1574280267.5455205,3.1304706,0.15
1574280268.923261,3.1304315,0.15
1574280270.3458207,3.1303798,0.15
1574280271.7336726,3.1303532,0.151
1574280273.1361053,3.1303343,0.151
1574280274.5277586,3.130328,0.15
1574280275.9150672,3.1302939,0.15
1574280277.3047674,3.1302548,0.151
1574280278.7148957,3.1302535,0.15
1574280280.11043,3.130203,0.151
1574280281.4948988,3.1301601,0.151
1574280282.8884332,3.1301538,0.151
1574280284.292914,3.1301311,0.151
1574280285.6755118,3.1301008,0.15
1574280287.0909643,3.1300566,0.15
1574280288.4787753,3.1300251,0.151
